"Time (s)","X (rad/s)","Y (rad/s)","Z (rad/s)"
2.978124998E-3,1.252228953E-2,-1.929863393E-1,-9.934801608E-3
1.293912500E-2,4.753699899E-2,-2.231780589E-1,6.404491141E-3
2.290112500E-2,9.767579287E-2,-1.515309811E-1,1.106175594E-2
3.286312500E-2,1.531507671E-1,-7.878088206E-2,1.700326800E-2
4.282512500E-2,1.911924779E-1,-5.113594979E-2,2.965818346E-2
5.278712500E-2,2.084380388E-1,-7.280316204E-2,3.539356589E-2
6.274812500E-2,2.014750093E-1,-1.166856959E-1,3.004078940E-2
7.271012500E-2,1.786967218E-1,-1.534080207E-1,2.529263869E-2
8.267212500E-2,1.386762708E-1,-1.767053306E-1,1.942099258E-2
9.263412500E-2,1.026804671E-1,-1.820718646E-1,2.415263280E-2
1.025961250E-1,8.017095178E-2,-1.784458160E-1,7.381156087E-3
1.125581250E-1,8.000583947E-2,-1.880675554E-1,-2.747111954E-3
1.225191250E-1,9.689985961E-2,-1.958694607E-1,2.130861394E-3
1.324811250E-1,1.106455028E-1,-1.728456318E-1,5.953828804E-3
1.424431250E-1,1.160328984E-1,-1.260076761E-1,2.327338094E-3
1.524051250E-1,1.166909635E-1,-9.140282124E-2,-2.751842607E-3
1.623671250E-1,1.104730070E-1,-7.132858038E-2,-6.541730836E-3
1.723281250E-1,1.017170623E-1,-5.156952143E-2,-1.581539214E-2
1.822901250E-1,8.276329190E-2,1.240390167E-2,-1.291058958E-2
1.922521250E-1,7.325766981E-2,5.784728378E-2,-2.622319944E-2
2.022141250E-1,7.636189461E-2,5.093402416E-2,-2.779735811E-2
2.121761250E-1,7.137459517E-2,4.888552055E-2,-3.149515763E-2
2.221371250E-1,5.371164158E-2,7.148953527E-2,-4.625078291E-2
2.320991250E-1,2.758869715E-2,9.707053006E-2,-5.102450028E-2
2.420611250E-1,6.203013472E-3,9.720493853E-2,-3.876248002E-2
2.520231250E-1,-5.338061601E-3,7.409242541E-2,-3.957101703E-2
2.619851250E-1,-2.050394937E-2,9.668814391E-2,-6.535466760E-2
2.719471250E-1,-6.039117649E-2,1.727885008E-1,-8.705623448E-2
2.819081250E-1,-1.174691096E-1,2.965522707E-1,-1.089114621E-1
2.918701250E-1,-1.761063337E-1,4.480278194E-1,-1.332900375E-1
3.018321250E-1,-2.567575574E-1,6.561207175E-1,-1.665541083E-1
3.117941250E-1,-3.111598194E-1,8.104569912E-1,-2.106318176E-1
3.217561250E-1,-2.946631014E-1,8.314020634E-1,-2.384460717E-1
3.317171250E-1,-2.414358407E-1,7.002501488E-1,-2.397148013E-1
3.416791250E-1,-2.017606348E-1,4.201548696E-1,-2.136636972E-1
3.516411250E-1,-1.809722632E-1,4.801059142E-2,-1.547170281E-1
3.616031250E-1,-1.327620745E-1,-3.148935437E-1,-8.149311692E-2
3.715651250E-1,-8.899062127E-2,-4.933580756E-1,-4.698786885E-2
3.815261250E-1,-6.581027806E-2,-3.702231944E-1,-3.228387237E-2
3.914881250E-1,-4.857975990E-3,-1.185968295E-1,-3.025241755E-2
4.014501250E-1,5.151337013E-2,1.423881203E-1,-3.477875888E-2
4.114121250E-1,7.673217356E-2,2.216030508E-1,-3.542537615E-2
4.213741250E-1,7.834190875E-2,3.468763456E-2,-1.219952572E-2
4.313351250E-1,8.945634961E-2,-2.088754773E-1,1.268957835E-2
4.412971250E-1,1.517718285E-1,-3.809025288E-1,1.399858668E-2
4.512591250E-1,2.739243805E-1,-4.684712589E-1,-1.204867149E-3
4.612211250E-1,4.320857227E-1,-4.964922965E-1,-2.382739261E-2
4.711831250E-1,5.853847265E-1,-4.327735007E-1,-5.367770046E-2
4.811451250E-1,6.681343913E-1,-2.626625896E-1,-9.671929479E-2
4.911061250E-1,6.784802675E-1,-1.478222907E-1,-1.414382905E-1
5.010681250E-1,5.966320038E-1,-1.656196564E-1,-1.863863319E-1
5.110301250E-1,4.652244151E-1,-2.992629409E-1,-2.261790186E-1
5.209921250E-1,3.763767481E-1,-4.342715740E-1,-2.510471642E-1
5.309541250E-1,3.731442094E-1,-4.531379342E-1,-2.651264966E-1
5.409158750E-1,4.312435389E-1,-3.720095456E-1,-2.590596974E-1
5.508778750E-1,5.001765490E-1,-3.053325117E-1,-2.300546616E-1
5.608398750E-1,5.356503725E-1,-2.934971750E-1,-2.015382946E-1
5.708018750E-1,5.308111310E-1,-3.142322898E-1,-1.782595962E-1
5.807638750E-1,5.233690143E-1,-3.335507214E-1,-1.604397595E-1
5.907258750E-1,5.432569981E-1,-3.201947212E-1,-1.481620520E-1
6.006868750E-1,5.848441720E-1,-2.711442411E-1,-1.407862902E-1
6.106488750E-1,6.205867529E-1,-2.214546949E-1,-1.309584379E-1
6.206108750E-1,6.402243972E-1,-2.112699747E-1,-1.237569824E-1
6.305728750E-1,6.455954313E-1,-2.319086790E-1,-1.234195605E-1
6.405348750E-1,6.387690902E-1,-2.421635836E-1,-1.223547161E-1
6.504958750E-1,6.376462579E-1,-2.267550677E-1,-1.164227948E-1
6.604578750E-1,6.401883364E-1,-2.056932151E-1,-1.113152131E-1
6.704198750E-1,6.433652043E-1,-1.962832063E-1,-1.006018445E-1
6.803818750E-1,6.335915327E-1,-1.966000199E-1,-8.174414933E-2
6.903438750E-1,6.013177037E-1,-1.993505359E-1,-6.918654591E-2
7.003058750E-1,5.420687795E-1,-2.350341529E-1,-6.191013008E-2
7.102668750E-1,4.730409682E-1,-3.050574660E-1,-4.693810269E-2
7.202288750E-1,4.239962101E-1,-3.392556310E-1,-5.671888590E-3
7.301908750E-1,4.140602052E-1,-2.449128926E-1,5.696272850E-2
7.401528750E-1,4.031235576E-1,6.168194115E-3,9.634779394E-2
7.501148750E-1,3.998566568E-1,1.889529228E-1,1.161577180E-1
7.600758750E-1,4.182258844E-1,1.870729625E-1,1.071142256E-1
7.700378750E-1,3.969861269E-1,1.142445579E-1,6.474280357E-2
7.799998750E-1,3.157614172E-1,5.497011915E-2,-9.807939641E-4
7.899618750E-1,1.977972388E-1,1.453001797E-2,-6.023426354E-2
7.999238750E-1,7.024828345E-2,-5.448630452E-2,-1.030151919E-1
8.098848750E-1,-5.796987563E-2,-1.198924780E-1,-1.249228865E-1
8.198468750E-1,-1.567168087E-1,-1.246276498E-1,-1.038034484E-1
8.298088750E-1,-2.092372775E-1,-8.498276770E-2,-9.160244465E-2
8.397708750E-1,-2.577741444E-1,-5.170214176E-2,-5.589346960E-2
8.497328750E-1,-3.480116129E-1,-1.135929376E-1,-1.030707452E-2
8.596948750E-1,-5.124698281E-1,-2.737451196E-1,3.806304187E-2
8.696558750E-1,-7.118257880E-1,-4.594665170E-1,9.162479639E-2
8.796178750E-1,-8.806592226E-1,-5.556220412E-1,1.512466222E-1
8.895798750E-1,-9.914746881E-1,-5.258452296E-1,2.135454267E-1
8.995418750E-1,-1.070129514E0,-4.748002291E-1,2.915907204E-1
9.095038750E-1,-1.193581104E0,-6.176042557E-1,3.853992522E-1
9.194648750E-1,-1.384128213E0,-9.363392591E-1,4.918034673E-1
9.294268750E-1,-1.641392469E0,-1.353581190E0,5.825533271E-1
9.393888750E-1,-1.986124873E0,-1.912813187E0,6.379843354E-1
9.493508750E-1,-2.407660723E0,-2.512815952E0,6.224538684E-1
9.593128750E-1,-2.723584890E0,-2.665200710E0,6.329236031E-1
9.692748750E-1,-2.532625675E0,-1.967129469E0,6.458889246E-1
9.792358750E-1,-1.983249784E0,-1.413127661E0,5.752404928E-1
9.891978750E-1,-1.536387920E0,-1.627380371E0,5.228646398E-1
9.991598750E-1,-1.361689448E0,-2.117707729E0,5.576797128E-1
1.009121875E0,-1.398067355E0,-2.139262199E0,6.918519139E-1
1.019083875E0,-1.467459917E0,-1.705761313E0,8.408257365E-1
1.029045875E0,-1.504851699E0,-1.352292299E0,9.219338894E-1
1.039006875E0,-1.650388002E0,-1.182988524E0,8.979955316E-1
1.048968875E0,-1.791543961E0,-1.069514632E0,8.606921434E-1
1.058930875E0,-1.789678931E0,-1.100248933E0,8.114727736E-1
1.068892875E0,-1.704087019E0,-1.256773829E0,7.348392606E-1
1.078854875E0,-1.617994070E0,-1.398748159E0,5.440602899E-1
1.088815875E0,-1.574271321E0,-1.291948915E0,3.199593127E-1
1.098777875E0,-1.553836823E0,-1.054802418E0,1.588618755E-1
1.108739875E0,-1.543724775E0,-8.361891508E-1,9.039254487E-2
1.118701875E0,-1.511772752E0,-7.073825002E-1,1.294361651E-1
1.128663875E0,-1.476425648E0,-4.952917993E-1,1.936862618E-1
1.138625875E0,-1.464406252E0,-2.984147668E-1,2.416247874E-1
1.148586875E0,-1.550340056E0,-8.812518418E-2,2.588442564E-1
1.158548875E0,-1.743704200E0,2.006266862E-1,3.508220911E-1
1.168510875E0,-1.971972585E0,4.176263511E-1,4.796660841E-1
1.178472875E0,-2.180310249E0,5.884435177E-1,5.548408628E-1
1.188434875E0,-2.364221096E0,7.453029156E-1,5.904547572E-1
1.198395875E0,-2.493048191E0,8.918337822E-1,5.118786693E-1
1.208357875E0,-2.489062309E0,1.067744851E0,2.886543572E-1
1.218319875E0,-2.259115934E0,1.227858782E0,9.070334584E-2
1.228281875E0,-1.708476543E0,1.264874578E0,1.304210722E-2
1.238243875E0,-9.445303082E-1,1.311912060E0,-4.555082694E-2
1.248205875E0,-9.277737141E-2,1.290705562E0,-1.932438761E-1
1.258166875E0,7.741681337E-1,1.283803701E0,-4.620276093E-1
1.268128875E0,1.561578631E0,1.417593241E0,-6.711121202E-1
1.278090875E0,2.176894188E0,1.611039162E0,-7.021003366E-1
1.288052875E0,2.509489536E0,1.711503148E0,-5.909282565E-1
1.298014875E0,2.608037710E0,1.654867411E0,-4.196151495E-1
1.307976875E0,2.562935114E0,1.448274851E0,-2.647598088E-1
1.317937875E0,2.405942202E0,1.141391993E0,-8.825670928E-2
1.327899875E0,2.149580717E0,7.687246799E-1,4.887025431E-2
1.337861875E0,1.704069018E0,3.197561204E-2,2.616590858E-1
1.347823875E0,8.353649974E-1,-1.583704472E0,7.580131292E-1
1.357785875E0,5.174139142E-1,-1.853972554E0,1.170050144E0
1.367746875E0,7.280904651E-1,-6.780759096E-1,1.002604723E0
1.377708875E0,1.415676475E0,-4.675150216E-1,5.168820024E-1
1.387670875E0,1.893133044E0,-7.277417779E-1,3.992033005E-1
1.397632875E0,1.957335591E0,-5.840313435E-1,4.506176710E-1
1.407594875E0,1.754244804E0,-6.615221500E-2,3.940481246E-1
1.417556875E0,7.156162858E-1,1.725308537E0,-6.197275221E-2
1.427517875E0,-3.228344023E-1,1.711271048E0,-8.129208088E-1
1.437479875E0,-4.391116202E-1,1.444413900E0,-1.388394356E0
1.447441875E0,-4.841843247E-2,1.464842677E0,-1.414709330E0
1.457403875E0,9.897318482E-2,1.379393458E0,-8.767015338E-1
1.467365875E0,1.940858513E-1,1.301652074E0,-2.794114947E-1
1.477326875E0,4.394865036E-1,1.308779716E0,-9.474721551E-2
1.487288875E0,7.771931887E-1,1.459897876E0,-1.684147865E-1
1.497250875E0,1.136119962E0,1.799528956E0,-2.274789214E-1
1.507212875E0,1.254095078E0,1.038676858E0,-1.366387606E-1
1.517174875E0,1.631332874E0,5.914416313E-1,-1.072946563E-1
1.527136875E0,2.327046394E0,9.463491440E-1,-6.488034874E-2
1.537097875E0,3.003019810E0,1.064455628E0,4.620371759E-2
1.547059375E0,3.139697790E0,9.060860276E-1,4.873584956E-2
1.557021375E0,2.726740837E0,6.441687346E-1,-3.638069145E-3
1.566983375E0,2.331718445E0,7.808395028E-1,-1.064448804E-1
1.576945375E0,2.009685278E0,1.314862609E0,-3.697285652E-1
1.586906375E0,1.500336766E0,1.742655158E0,-6.976702213E-1
1.596868375E0,8.575229049E-1,1.920464277E0,-7.685710192E-1
1.606830375E0,4.043034911E-1,1.739817739E0,-4.923205674E-1
1.616792375E0,3.307135403E-1,1.487453461E0,-2.770553529E-1
1.626754375E0,5.504767895E-1,1.378415108E0,-1.207264587E-1
1.636716375E0,8.770270348E-1,8.822360039E-1,-7.985011488E-2
1.646677375E0,1.064696789E0,2.472782284E-1,-1.177644730E-1
1.656639375E0,1.155354381E0,-1.186936051E-1,-1.015402451E-1
1.666601375E0,1.074504495E0,-3.347747922E-1,-8.566514403E-2
1.676563375E0,7.780638933E-1,-6.781848073E-1,-5.887046829E-2
1.686525375E0,3.563049436E-1,-1.120549321E0,1.300025918E-2
1.696487375E0,-9.732015431E-2,-1.460766912E0,1.933481991E-1
1.706448375E0,-4.287782609E-1,-1.406327963E0,4.698943198E-1
1.716410375E0,-6.652700305E-1,-1.185327649E0,7.202654481E-1
1.726372375E0,-8.870838881E-1,-1.217850924E0,8.921972513E-1
1.736334375E0,-1.034872770E0,-1.255282879E0,1.022527575E0
1.746296375E0,-1.205817342E0,-1.336386561E0,1.072285295E0
1.756257375E0,-1.418404818E0,-1.408132434E0,9.882024527E-1
1.766219375E0,-1.692615867E0,-1.532590389E0,7.454627752E-1
1.776181375E0,-2.022123337E0,-1.724981904E0,4.846661985E-1
1.786143375E0,-2.347001076E0,-1.533236146E0,3.205507696E-1
1.796105375E0,-2.641268492E0,-8.470306396E-1,3.491622508E-1
1.806067375E0,-2.958524466E0,-3.362669945E-1,6.191324592E-1
1.816028375E0,-3.234766722E0,-4.728025794E-1,9.462997913E-1
1.825990375E0,-3.260272741E0,-1.113848090E0,1.100799084E0
1.835952375E0,-2.959860086E0,-1.876651049E0,1.027558327E0
1.845914375E0,-2.489660263E0,-2.330342293E0,7.100831866E-1
1.855876375E0,-1.930640221E0,-2.821520567E0,2.087364346E-1
1.865837375E0,-1.453162074E0,-3.324703217E0,-2.430680394E-1
1.875799375E0,-1.164497852E0,-3.394725800E0,-4.022459686E-1
1.885761375E0,-1.203201532E0,-2.926332951E0,-4.473897517E-1
1.895723375E0,-1.427315593E0,-2.197408915E0,-3.997896612E-1
1.905685375E0,-1.651323080E0,-1.627552748E0,-4.223458469E-1
1.915647375E0,-1.749290228E0,-1.190156817E0,-6.214089990E-1
1.925608375E0,-1.802043200E0,-7.475008368E-1,-6.072654724E-1
1.935570375E0,-1.818740129E0,-3.198778927E-1,-4.408871830E-1
1.945532375E0,-1.790533304E0,1.834942587E-2,-2.755523026E-1
1.955494375E0,-1.852544904E0,4.310521185E-1,-1.595337391E-1
1.965456375E0,-1.942907572E0,8.796740770E-1,-2.322223037E-2
1.975417375E0,-1.978759646E0,1.261680961E0,1.016465873E-1
1.985379375E0,-1.871877193E0,1.560038090E0,1.727194339E-1
1.995341375E0,-1.537058949E0,1.569452882E0,2.707519233E-1
2.005303375E0,-9.077897668E-1,1.341333508E0,4.333067238E-1
2.015265375E0,-2.885857411E-2,1.073816776E0,5.267328024E-1
2.025227375E0,1.108303666E0,8.495903611E-1,4.242418408E-1
2.035188375E0,2.301079988E0,1.005478144E0,1.363581121E-1
2.045150375E0,3.278148174E0,1.429169416E0,-1.107145324E-1
2.055112375E0,3.818806648E0,1.828184247E0,-1.760745049E-1
2.065074375E0,3.882190943E0,1.975016117E0,-1.629131585E-1
2.075036375E0,3.649014473E0,1.669111133E0,-1.066556498E-1
2.084997375E0,3.145768404E0,8.895512819E-1,1.504202280E-2
2.094959375E0,2.144813776E0,-7.442269921E-1,1.471971720E-1
2.104921375E0,3.043506145E-1,-3.681291580E0,3.152546287E-1
2.114883375E0,-1.457229495E0,-6.023674011E0,6.664722562E-1
2.124845375E0,-2.132428408E0,-4.680533886E0,9.288148880E-1
2.134807375E0,-1.237073421E0,-9.185641408E-1,4.412313700E-1
2.144768375E0,3.548325002E-1,7.400709391E-1,-2.846496701E-1
2.154730375E0,1.629891038E0,2.207323551E0,-5.674188733E-1
2.164692375E0,1.927850485E0,3.155733347E0,-6.372035146E-1
2.174654375E0,1.439547896E0,2.149975538E0,-6.216304302E-1
2.184616375E0,8.735025525E-1,1.399551511E0,-4.025300145E-1
2.194578375E0,2.516530752E-1,1.096076727E0,-7.079339027E-2
2.204539375E0,-1.442937404E-1,1.025753856E0,1.416421682E-1
2.214501375E0,-1.776106358E-1,1.162054181E0,-5.323735531E-4
2.224463375E0,-1.539295726E-2,1.614180446E0,-1.607771814E-1
2.234425375E0,2.557959557E-1,2.081834316E0,-2.255097032E-1
2.244387375E0,6.098440289E-1,2.341744184E0,-2.143087089E-1
2.254348375E0,9.943065047E-1,2.304389238E0,-9.608464688E-2
2.264310375E0,9.276672602E-1,-1.008681431E-1,8.221786469E-3
2.274272375E0,1.339439273E0,-8.900796771E-1,3.816771135E-2
2.284234375E0,2.628344297E0,1.272049665E0,-1.212821715E-2
2.294196375E0,3.385460615E0,2.128004551E0,-4.333458096E-2
2.304157375E0,3.167510748E0,1.526414156E0,-1.312383264E-1
2.314119375E0,2.636104584E0,1.026858211E0,-2.535401881E-1
2.324081375E0,2.105292082E0,1.117879987E0,-4.964838326E-1
2.334043375E0,1.550942421E0,1.126536012E0,-8.928751945E-1
2.344005375E0,9.952706695E-1,1.149042964E0,-9.660876393E-1
2.353967375E0,8.101158142E-1,1.430547357E0,-7.327913642E-1
2.363928375E0,8.744074106E-1,1.489859939E0,-4.102402031E-1
2.373890375E0,8.278171420E-1,1.085792542E0,-1.315778792E-1
2.383852375E0,7.660019994E-1,8.281481862E-1,-2.897987328E-2
2.393814375E0,6.816192865E-1,6.255596280E-1,-1.001525670E-1
2.403776375E0,4.616518021E-1,3.198416904E-2,-1.768633276E-1
2.413737375E0,2.307244688E-1,-7.380784154E-1,-1.102411747E-1
2.423699375E0,4.476259276E-2,-1.098178506E0,7.261652499E-2
2.433661375E0,-2.019255161E-1,-1.494952798E0,3.561718464E-1
2.443623375E0,-6.002380252E-1,-2.221421003E0,6.606148481E-1
2.453585375E0,-8.967446089E-1,-2.608443499E0,9.114860296E-1
2.463547375E0,-1.007382751E0,-2.278373957E0,1.022147298E0
2.473508375E0,-1.150854945E0,-1.625911832E0,1.014360785E0
2.483470375E0,-1.388159394E0,-1.018315911E0,9.649307728E-1
2.493432375E0,-1.669014573E0,-5.323268175E-1,9.518083334E-1
2.503394375E0,-1.997494221E0,-1.019365191E-1,9.664468765E-1
2.513356375E0,-2.363595724E0,3.598074019E-1,9.507102966E-1
2.523318375E0,-2.810604572E0,3.279410899E-1,8.830556273E-1
2.533279375E0,-3.552061319E0,-1.244233966E0,8.484414220E-1
2.543241500E0,-3.905820131E0,-2.637530327E0,1.166930199E0
2.553203500E0,-2.748384714E0,-4.946110547E-1,1.643958926E0
2.563165500E0,-1.653178573E0,-8.079017997E-1,1.649499655E0
2.573127500E0,-1.146922469E0,-3.270203829E0,1.214589000E0
2.583088500E0,-9.751219153E-1,-4.241701126E0,7.874253392E-1
2.593050500E0,-7.704329491E-1,-3.742654562E0,4.574937522E-1
2.603012500E0,-4.707865417E-1,-3.050269842E0,6.886982918E-2
2.612974500E0,-3.921070993E-1,-2.514358521E0,-2.967237532E-1
2.622936500E0,-5.504429340E-1,-1.863824606E0,-5.541906953E-1
2.632898500E0,-8.118911386E-1,-1.009008646E0,-5.913890600E-1
2.642859500E0,-1.203536630E0,-1.107428074E-1,-3.861014247E-1
2.652821500E0,-1.706662297E0,6.192811728E-1,-1.218270510E-1
2.662783500E0,-2.256495476E0,1.019501567E0,5.476289615E-2
2.672745500E0,-2.720353603E0,1.212929130E0,1.926165447E-2
2.682707500E0,-3.021205425E0,1.313757181E0,-1.126575023E-1
2.692668500E0,-2.987843752E0,1.144041896E0,-2.500618994E-1
2.702630500E0,-2.464541197E0,8.278344274E-1,-3.108757138E-1
2.712592500E0,-1.642040491E0,7.791081667E-1,-3.161763549E-1
2.722554500E0,-6.754999757E-1,9.079294801E-1,-3.293017447E-1
2.732516500E0,3.366120458E-1,1.099660397E0,-3.456089795E-1
2.742477500E0,1.272931576E0,1.280711412E0,-3.407716155E-1
2.752439500E0,2.011625767E0,1.528025389E0,-4.082509279E-1
2.762401500E0,2.596490860E0,2.054086924E0,-5.627973676E-1
2.772363500E0,3.120348930E0,2.507934332E0,-7.906139493E-1
2.782325500E0,3.503319263E0,2.509136677E0,-9.587954879E-1
2.792287500E0,3.619707584E0,2.125704050E0,-9.401014447E-1
2.802248500E0,3.381067514E0,1.646835446E0,-7.989137173E-1
2.812210500E0,2.713283777E0,1.029230595E0,-5.155626535E-1
2.822172500E0,1.321511626E0,-6.490498781E-1,-1.373932809E-1
2.832134500E0,-1.090421200E0,-3.679351330E0,2.275348902E-1
2.842096500E0,-3.379318714E0,-6.495918751E0,6.944254041E-1
2.852057500E0,-3.380208254E0,-4.486724377E0,1.153426170E0
2.862019500E0,-1.564918280E0,-9.692717791E-1,8.710698485E-1
2.871981500E0,3.365379572E-1,8.310007453E-1,2.554329932E-1
2.881943500E0,1.804321051E0,3.252420902E0,-1.150842663E-2
2.891905500E0,1.667883635E0,3.214613438E0,1.437582523E-1
2.901867500E0,6.874502897E-1,9.518786669E-1,3.639755845E-1
2.911828500E0,1.103424728E-1,8.862132430E-1,4.534297585E-1
2.921790500E0,-2.927112579E-1,1.070481658E0,5.595218539E-1
2.931752500E0,-5.149850249E-1,1.519235969E0,4.818374217E-1
2.941714500E0,-3.981434107E-1,1.768369675E0,9.422446787E-2
2.951676500E0,-8.853540570E-2,1.925662279E0,-2.903409302E-1
2.961638500E0,2.638745904E-1,2.141929865E0,-3.335089087E-1
2.971599500E0,6.397969723E-1,2.431984186E0,-1.856672764E-1
2.981561500E0,1.081974626E0,2.456601143E0,-1.306935102E-1
2.991523500E0,1.526190281E0,2.139354229E0,-2.047462761E-2
3.001485500E0,1.942829847E0,1.693750501E0,1.424618363E-1
3.011447500E0,1.831246257E0,-2.702776194E-1,4.617373273E-2
3.021408500E0,1.487843037E0,-1.949150324E0,-1.696155518E-1
3.031370500E0,2.865756273E0,1.834628105E0,-2.097725123E-1
3.041332500E0,3.576236963E0,2.435512066E0,-3.156541884E-1
3.051294500E0,3.217735767E0,1.109062672E0,-6.520057917E-1
3.061256500E0,2.594545841E0,3.343875408E-1,-8.248391151E-1
3.071218500E0,2.143688202E0,5.024757385E-1,-7.410147190E-1
3.081179500E0,1.919303298E0,9.456608891E-1,-6.310195327E-1
3.091141500E0,1.855365157E0,1.067491055E0,-6.635978222E-1
3.101103500E0,1.581178665E0,6.675899625E-1,-6.433809400E-1
3.111065500E0,1.186769366E0,5.169551373E-1,-5.165079832E-1
3.121027500E0,8.994166255E-1,7.340813279E-1,-3.316947818E-1
3.130988500E0,6.085318327E-1,6.639157534E-1,-1.620323509E-1
3.140950500E0,2.948364913E-1,1.662542671E-1,-1.500145793E-1
3.150912500E0,3.088716790E-2,-4.048345685E-1,-1.586880162E-2
3.160874500E0,-2.558268905E-1,-9.385312200E-1,2.940299213E-1
3.170836500E0,-7.575283051E-1,-1.994555354E0,6.134513617E-1
3.180798500E0,-1.296415210E0,-3.095401287E0,9.092276096E-1
3.190759500E0,-1.328136802E0,-2.668330669E0,1.111977816E0
3.200721500E0,-1.184751153E0,-1.827764153E0,1.177975535E0
3.210683500E0,-1.206071615E0,-1.301163793E0,1.181776881E0
3.220645500E0,-1.352747917E0,-9.613622427E-1,1.193076968E0
3.230607500E0,-1.586277127E0,-6.364188194E-1,1.204495192E0
3.240568500E0,-1.942879200E0,-2.905972302E-1,1.129505634E0
3.250530500E0,-2.417478323E0,-8.287248015E-2,9.753726125E-1
3.260492500E0,-2.957782030E0,-2.359152883E-1,6.995844245E-1
3.270454500E0,-3.694522619E0,-1.249666095E0,5.049088597E-1
3.280416500E0,-4.353312016E0,-2.156099081E0,9.486240149E-1
3.290378500E0,-3.651823997E0,-4.205116630E-2,1.669214606E0
3.300339500E0,-2.706152439E0,-9.062858298E-3,1.596368313E0
3.310301500E0,-2.010248661E0,-2.399926901E0,1.093912125E0
